1099.9	557
1101.9	608.75
1103.9	594.5
1105.9	594.75
1107.9	591.25
1109.9	589.25
1111.9	586.5
1113.9	577.75
1115.9	594.75
1117.9	596
1119.9	599
1121.9	585.25
1123.9	587.5
1125.9	581
1127.9	581.25
1129.9	603.25
1131.9	604.75
1133.9	603.25
1135.9	585
1137.9	626
1139.9	597.75
1141.9	627.5
1143.9	624.75
1145.9	613.25
1147.9	628.75
1149.9	617.5
1151.9	619.5
1153.9	614.75
1155.9	623.75
1157.9	640.75
1159.9	628.25
1161.9	626
1163.9	640.25
1165.9	616.75
1167.9	636.5
1169.9	639.75
1171.9	639.75
1173.9	654.5
1175.9	634
1177.9	633.5
1179.9	638.25
1181.9	644.75
1183.9	663.25
1185.9	672.5
1187.9	663
1189.9	657.75
1191.9	677.25
1193.9	670.25
1195.9	681
1197.9	666.5
1199.9	677.5
1201.9	678.25
1203.9	693.5
1205.9	686.75
1207.9	674.5
1209.9	707.75
1211.9	699.75
1213.9	711.75
1215.9	713
1217.9	713.25
1219.9	685.25
1221.9	714.25
1223.9	722.5
1225.9	728.75
1227.9	757.25
1229.9	739.25
1231.9	740.75
1233.9	737.25
1235.9	755.25
1237.9	781
1239.9	795.75
1241.9	765.25
1243.9	772.5
1245.9	767.5
1247.9	774.25
1249.9	789.25
1251.9	800.25
1253.9	777.75
1255.9	828
1257.9	799
1259.9	815.5
1261.9	818.75
1263.9	836
1265.9	855.5
1267.9	827.75
1269.9	840.25
1271.9	837.5
1273.9	839.25
1275.9	841.5
1277.9	831.75
1279.9	862
1281.9	881.75
1283.9	849.25
1285.9	896.25
1287.9	899.25
1289.9	908.5
1291.9	890
1293.9	934.25
1295.9	890.75
1297.9	914.75
1299.9	912.75
1301.9	969
1303.9	955.25
1305.9	960.5
1307.9	951
1309.9	961
1311.9	978.75
1313.9	961
1315.9	980.75
1317.9	1024.5
1319.9	973.75
1321.9	1011.2
1323.9	998
1325.9	994.5
1327.9	1022
1329.9	995.25
1331.9	1060.2
1333.9	1035.5
1335.9	1044
1337.9	1040.7
1339.9	1021.7
1341.9	1038.7
1343.9	1071.2
1345.9	1046.2
1347.9	1084
1349.9	1035.7
1351.9	1077.5
1353.9	1099.7
1355.9	1105
1357.9	1089.7
1359.9	1082
1361.9	1086
1363.9	1098.5
1365.9	1112.2
1367.9	1091.2
1369.9	1112.2
1371.9	1107.7
1373.9	1123.5
1375.9	1113.5
1377.9	1113
1379.9	1145
1381.9	1113.7
1383.9	1153.7
1385.9	1126.2
1387.9	1142
1389.9	1135.7
1391.9	1142.7
1393.9	1127.7
1395.9	1133.7
1397.9	1163.5
1399.9	1154
1401.9	1162.5
1403.9	1166.2
1405.9	1166.2
1407.9	1192.5
1409.9	1179.5
1411.9	1188.5
1413.9	1161.7
1415.9	1239.2
1417.9	1179
1419.9	1204.7
1421.9	1165.7
1423.9	1211.2
1425.9	1212.7
1427.9	1155
1429.9	1220.2
1431.9	1208.2
1433.9	1187.7
1435.9	1197.7
1437.9	1234
1439.9	1258.5
1441.9	1258.2
1443.9	1220.7
1445.9	1205.7
1447.9	1239.5
1449.9	1233
1451.9	1220.2
1453.9	1220
1455.9	1229.2
1457.9	1235.2
1459.9	1246.5
1461.9	1273.5
1463.9	1270
1465.9	1239.2
1467.9	1278.7
1469.9	1262.5
1471.9	1258.2
1473.9	1250.5
1475.9	1267.2
1477.9	1300.5
1479.9	1303.5
1481.9	1252.2
1483.9	1294
1485.9	1288.2
1487.9	1311.2
1489.9	1308
1491.9	1304.7
1493.9	1332.5
1495.9	1326.5
1497.9	1315.7
1499.9	1334.2
1501.9	1316.7
1503.9	1341.5
1505.9	1319.2
1507.9	1328.2
1509.9	1351
1511.9	1339
1513.9	1382.2
1515.9	1374.7
1517.9	1345.7
1519.9	1380.7
1521.9	1377
1523.9	1368.7
1525.9	1366.7
1527.9	1383.7
1529.9	1400.7
1531.9	1402.2
1533.9	1417
1535.9	1445.2
1537.9	1428.7
1539.9	1434.5
1541.9	1472
1543.9	1457.5
1545.9	1447.7
1547.9	1440.7
1549.9	1486.7
1551.9	1466.5
1553.9	1523.2
1555.9	1496.7
1557.9	1507.7
1559.9	1473.2
1561.9	1502.5
1563.9	1491.2
1565.9	1487.7
1567.9	1496.2
1569.9	1524.7
1571.9	1502.7
1573.9	1518
1575.9	1482
1577.9	1485.2
1579.9	1471.2
1581.9	1507
1583.9	1457.7
1585.9	1457.7
1587.9	1457.5
1589.9	1440.7
1591.9	1437
1593.9	1421.2
1595.9	1412
1597.9	1419.7
1599.9	1408.7
1601.9	1381
1603.9	1363.2
1605.9	1387.2
1607.9	1383
1609.9	1363
1611.9	1368.7
1613.9	1323.5
1615.9	1321.2
1617.9	1305
1619.9	1308
1621.9	1282
1623.9	1214.5
1625.9	1185.2
1627.9	1186.2
1629.9	1166.2
1631.9	1195.5
1633.9	1107.5
1635.9	1101.2
1637.9	1084.2
1639.9	1090.2
1641.9	1108
1643.9	1048.2
1645.9	1012.5
1647.9	978.5
1649.9	946
1651.9	946.75
1653.9	929.5
1655.9	915.75
1657.9	885
1659.9	856.5
1661.9	897.25
1663.9	853.5
1665.9	822
1667.9	801.75
1669.9	800.75
1671.9	813.75
1673.9	770.75
1675.9	755.5
1677.9	733
1679.9	724
1681.9	696
1683.9	701.25
1685.9	675.25
1687.9	673.5
1689.9	664.5
1691.9	631.75
1693.9	641.75
1695.9	617
1697.9	600.75
1699.9	610.25
1701.9	571.5
1703.9	597.5
1705.9	580.25
1707.9	587
1709.9	560.25
1711.9	544
1713.9	536.75
1715.9	515
1717.9	524
1719.9	506.75
1721.9	521.75
1723.9	501.25
1725.9	492.75
1727.9	498.25
1729.9	485.5
1731.9	487.75
1733.9	471.25
1735.9	483.5
1737.9	462.25
1739.9	450
1741.9	453
1743.9	420.75
1745.9	435.75
1747.9	448.75
1749.9	432.25
1751.9	407.25
1753.9	423.25
1755.9	437.75
1757.9	418.75
1759.9	412
1761.9	414.75
1763.9	407.25
1765.9	417.25
1767.9	405.25
1769.9	412.5
1771.9	404.5
1773.9	377.75
1775.9	376.75
1777.9	388.75
1779.9	388
1781.9	371.25
1783.9	400
1785.9	373.5
1787.9	376.75
1789.9	385.5
1791.9	372.25
1793.9	377
1795.9	364.75
1797.9	383.25
1799.9	372.5
